   0.0000000e+00   1.5000000e+01   0.0000000e+00   5.0000000e+00   0.0000000e+00   2.3000000e+01   0.0000000e+00   1.0000000e+01
   1.0000000e+00   2.8337742e-07   1.0000000e+00   2.8337742e-07   1.0000000e+00   3.0000001e+00   1.0000000e+00   3.1451615e-05
   2.0000000e+00   7.2009916e-09   2.0000000e+00   1.0000000e+01   2.0000000e+00   1.5087192e-08   2.0000000e+00   1.6785838e-08
   3.0000000e+00  -9.8602015e-11   3.0000000e+00   1.4321733e-07   3.0000000e+00   1.6501588e-08   3.0000000e+00   7.9874883e-06
   4.0000000e+00   3.0687940e-08   4.0000000e+00   7.0000000e+00   4.0000000e+00   3.3136523e-08   4.0000000e+00   3.7975734e-06
   5.0000000e+00   7.3925861e-09   5.0000000e+00   2.1320464e-07   5.0000000e+00   8.6947265e-08   5.0000000e+00   4.0902109e-06
   6.0000000e+00   5.2093441e-11   6.0000000e+00   1.0296706e-07   6.0000000e+00   4.5713202e-08   6.0000000e+00   8.5497329e-06
   7.0000000e+00   2.9984660e-08   7.0000000e+00   6.1085098e-08   7.0000000e+00   5.1917246e-08   7.0000000e+00   8.0960954e-06
   8.0000000e+00   3.6903165e-08   8.0000000e+00   2.2820135e-08   8.0000000e+00   3.0172878e-08   8.0000000e+00   5.3103211e-06
   9.0000000e+00   5.7354772e-08   9.0000000e+00   4.3562860e-09   9.0000000e+00   2.9767550e-08   9.0000000e+00   5.3102687e-06
   1.0000000e+01   3.8578539e-08   1.0000000e+01   2.1162755e-08   1.0000000e+01   2.7119025e-08   1.0000000e+01   5.3103643e-06
   1.1000000e+01   3.7651377e-08   1.1000000e+01   2.2115589e-08   1.1000000e+01   2.7134703e-08   1.1000000e+01   5.3103826e-06
   1.2000000e+01   3.1205818e-08   1.2000000e+01   2.8404935e-08   1.2000000e+01   2.7118231e-08   1.2000000e+01   5.3103060e-06
   1.3000000e+01   3.1044584e-08   1.3000000e+01   2.8519436e-08   1.3000000e+01   2.7080361e-08   1.3000000e+01   5.3103481e-06
   1.4000000e+01   3.1088764e-08   1.4000000e+01   2.8520050e-08   1.4000000e+01   2.7110664e-08   1.4000000e+01   5.3103365e-06
   1.5000000e+01   3.1044564e-08   1.5000000e+01   2.8481756e-08   1.5000000e+01   2.7142692e-08   1.5000000e+01   5.3103371e-06
   1.6000000e+01   3.1064147e-08   1.6000000e+01   2.8481567e-08   1.6000000e+01   2.7107189e-08   1.6000000e+01   5.3103721e-06
   1.7000000e+01   3.1111375e-08   1.7000000e+01   2.8496272e-08   1.7000000e+01   2.7169611e-08   1.7000000e+01   5.3103870e-06
   1.8000000e+01   3.1051009e-08   1.8000000e+01   2.8550390e-08   1.8000000e+01   2.7114737e-08   1.8000000e+01   5.3103844e-06
   1.9000000e+01   3.1046822e-08   1.9000000e+01   2.8490009e-08   1.9000000e+01   2.7173110e-08   1.9000000e+01   5.3103362e-06
   2.0000000e+01   3.1049241e-08   2.0000000e+01   2.8532632e-08   2.0000000e+01   2.7125962e-08   2.0000000e+01   5.3103577e-06
   2.1000000e+01   3.1104367e-08   2.1000000e+01   2.8474590e-08   2.1000000e+01   2.7086262e-08   2.1000000e+01   5.3103318e-06
   2.2000000e+01   3.1062035e-08   2.2000000e+01   2.8548387e-08   2.2000000e+01   2.7164482e-08   2.2000000e+01   5.3102993e-06
   2.3000000e+01   3.0955796e-08   2.3000000e+01   2.8599278e-08   2.3000000e+01   2.7141560e-08   2.3000000e+01   5.3103422e-06
   2.4000000e+01   3.1056137e-08   2.4000000e+01   2.8469357e-08   2.4000000e+01   2.7106013e-08   2.4000000e+01   5.3103501e-06
   2.5000000e+01   3.1077374e-08   2.5000000e+01   2.8511865e-08   2.5000000e+01   2.7172304e-08   2.5000000e+01   5.3104184e-06
   2.6000000e+01   3.1026445e-08   2.6000000e+01   2.8581361e-08   2.6000000e+01   2.7169772e-08   2.6000000e+01   5.3103479e-06
   2.7000000e+01   3.1009160e-08   2.7000000e+01   2.8537487e-08   2.7000000e+01   2.7126989e-08   2.7000000e+01   5.3103369e-06
   2.8000000e+01   3.1084994e-08   2.8000000e+01   2.8482388e-08   2.8000000e+01   2.7122658e-08   2.8000000e+01   5.3102520e-06
   2.9000000e+01   3.1111837e-08   2.9000000e+01   2.8497379e-08   2.9000000e+01   2.7126877e-08   2.9000000e+01   5.3103743e-06
   3.0000000e+01   3.1133565e-08   3.0000000e+01   2.8412382e-08   3.0000000e+01   2.7107550e-08   3.0000000e+01   5.3103601e-06
   3.1000000e+01   3.1143655e-08   3.1000000e+01   2.8507110e-08   3.1000000e+01   2.7181596e-08   3.1000000e+01   5.3103711e-06
   3.2000000e+01   3.1040363e-08   3.2000000e+01   2.8498761e-08   3.2000000e+01   2.7122613e-08   3.2000000e+01   5.3102567e-06
   3.3000000e+01   3.1129531e-08   3.3000000e+01   2.8534975e-08   3.3000000e+01   2.7120333e-08   3.3000000e+01   5.3102773e-06
   3.4000000e+01   3.1125078e-08   3.4000000e+01   2.8439205e-08   3.4000000e+01   2.7131568e-08   3.4000000e+01   5.3103533e-06
   3.5000000e+01   3.1114336e-08   3.5000000e+01   2.8547310e-08   3.5000000e+01   2.7109268e-08   3.5000000e+01   5.3103508e-06
   3.6000000e+01   3.1080356e-08   3.6000000e+01   2.8558578e-08   3.6000000e+01   2.7133595e-08   3.6000000e+01   5.3103602e-06
   3.7000000e+01   3.1042097e-08   3.7000000e+01   2.8551938e-08   3.7000000e+01   2.7150140e-08   3.7000000e+01   5.3103435e-06
   3.8000000e+01   3.1048637e-08   3.8000000e+01   2.8575599e-08   3.8000000e+01   2.7133474e-08   3.8000000e+01   5.3103786e-06
   3.9000000e+01   3.1083850e-08   3.9000000e+01   2.8507660e-08   3.9000000e+01   2.7145115e-08   3.9000000e+01   5.3103350e-06
   4.0000000e+01   3.1048799e-08   4.0000000e+01   2.8530678e-08   4.0000000e+01   2.7140683e-08   4.0000000e+01   5.3103127e-06
   4.1000000e+01   3.1069307e-08   4.1000000e+01   2.8524314e-08   4.1000000e+01   2.7106758e-08   4.1000000e+01   5.3103203e-06
   4.2000000e+01   3.1059068e-08   4.2000000e+01   2.8546093e-08   4.2000000e+01   2.7137872e-08   4.2000000e+01   5.3103823e-06
   4.3000000e+01   3.1121992e-08   4.3000000e+01   2.8536583e-08   4.3000000e+01   2.7110255e-08   4.3000000e+01   5.3103116e-06
   4.4000000e+01   3.1097914e-08   4.4000000e+01   2.8514849e-08   4.4000000e+01   2.7141292e-08   4.4000000e+01   5.3103447e-06
   4.5000000e+01   3.1007817e-08   4.5000000e+01   2.8568223e-08   4.5000000e+01   2.7116796e-08   4.5000000e+01   5.3103694e-06
   4.6000000e+01   3.0996862e-08   4.6000000e+01   2.8541566e-08   4.6000000e+01   2.7150580e-08   4.6000000e+01   5.3103567e-06
   4.7000000e+01   3.1113252e-08   4.7000000e+01   2.8545420e-08   4.7000000e+01   2.7084612e-08   4.7000000e+01   5.3103562e-06
   4.8000000e+01   3.1085312e-08   4.8000000e+01   2.8534897e-08   4.8000000e+01   2.7158071e-08   4.8000000e+01   5.3103926e-06
   4.9000000e+01   3.1054407e-08   4.9000000e+01   2.8488715e-08   4.9000000e+01   2.7105603e-08   4.9000000e+01   5.3103364e-06
   5.0000000e+01   3.1040676e-08   5.0000000e+01   2.8519612e-08   5.0000000e+01   2.7111843e-08   5.0000000e+01   5.3103074e-06
   5.1000000e+01   3.1092581e-08   5.1000000e+01   2.8480294e-08   5.1000000e+01   2.7177620e-08   5.1000000e+01   5.3103972e-06
   5.2000000e+01   3.1041374e-08   5.2000000e+01   2.8475952e-08   5.2000000e+01   2.7101775e-08   5.2000000e+01   5.3103519e-06
   5.3000000e+01   3.1077100e-08   5.3000000e+01   2.8505889e-08   5.3000000e+01   2.7106735e-08   5.3000000e+01   5.3103421e-06
   5.4000000e+01   3.1125049e-08   5.4000000e+01   2.8466502e-08   5.4000000e+01   2.7147525e-08   5.4000000e+01   5.3103776e-06
   5.5000000e+01   3.1070703e-08   5.5000000e+01   2.8540843e-08   5.5000000e+01   2.7184297e-08   5.5000000e+01   5.3103923e-06
   5.6000000e+01   3.1019095e-08   5.6000000e+01   2.8548939e-08   5.6000000e+01   2.7116194e-08   5.6000000e+01   5.3103605e-06
   5.7000000e+01   3.1094833e-08   5.7000000e+01   2.8500105e-08   5.7000000e+01   2.7097736e-08   5.7000000e+01   5.3103257e-06
   5.8000000e+01   3.1048440e-08   5.8000000e+01   2.8604539e-08   5.8000000e+01   2.7133048e-08   5.8000000e+01   5.3103545e-06
   5.9000000e+01   3.1031558e-08   5.9000000e+01   2.8575100e-08   5.9000000e+01   2.7101191e-08   5.9000000e+01   5.3103519e-06
   6.0000000e+01   3.1013879e-08   6.0000000e+01   2.8529684e-08   6.0000000e+01   2.7182370e-08   6.0000000e+01   5.3103611e-06
   6.1000000e+01   3.1031572e-08   6.1000000e+01   2.8502724e-08   6.1000000e+01   2.7088376e-08   6.1000000e+01   5.3102877e-06
   6.2000000e+01   3.1082225e-08   6.2000000e+01   2.8492325e-08   6.2000000e+01   2.7150236e-08   6.2000000e+01   5.3103257e-06
   6.3000000e+01   3.1099161e-08   6.3000000e+01   2.8472913e-08   6.3000000e+01   2.7125648e-08   6.3000000e+01   5.3103432e-06
   6.4000000e+01   3.1059093e-08   6.4000000e+01   2.8472131e-08   6.4000000e+01   2.7172488e-08   6.4000000e+01   5.3103765e-06
   6.5000000e+01   3.1118686e-08   6.5000000e+01   2.8461491e-08   6.5000000e+01   2.7119585e-08   6.5000000e+01   5.3103276e-06
   6.6000000e+01   3.1004276e-08   6.6000000e+01   2.8495009e-08   6.6000000e+01   2.7111803e-08   6.6000000e+01   5.3103221e-06
   6.7000000e+01   3.1105190e-08   6.7000000e+01   2.8519635e-08   6.7000000e+01   2.7141011e-08   6.7000000e+01   5.3103436e-06
   6.8000000e+01   3.1086788e-08   6.8000000e+01   2.8472419e-08   6.8000000e+01   2.7217318e-08   6.8000000e+01   5.3103764e-06
   6.9000000e+01   3.1116258e-08   6.9000000e+01   2.8460086e-08   6.9000000e+01   2.7166394e-08   6.9000000e+01   5.3103362e-06
   7.0000000e+01   3.1064625e-08   7.0000000e+01   2.8556356e-08   7.0000000e+01   2.7188122e-08   7.0000000e+01   5.3103543e-06
   7.1000000e+01   3.1116301e-08   7.1000000e+01   2.8488788e-08   7.1000000e+01   2.7146610e-08   7.1000000e+01   5.3103392e-06
   7.2000000e+01   3.1114741e-08   7.2000000e+01   2.8453824e-08   7.2000000e+01   2.7173291e-08   7.2000000e+01   5.3104681e-06
   7.3000000e+01   3.1112240e-08   7.3000000e+01   2.8524662e-08   7.3000000e+01   2.7129918e-08   7.3000000e+01   5.3103610e-06
   7.4000000e+01   3.1055011e-08   7.4000000e+01   2.8488730e-08   7.4000000e+01   2.7170195e-08   7.4000000e+01   5.3103269e-06
   7.5000000e+01   3.1109867e-08   7.5000000e+01   2.8563438e-08   7.5000000e+01   2.7116590e-08   7.5000000e+01   5.3102426e-06
   7.6000000e+01   3.1113343e-08   7.6000000e+01   2.8508895e-08   7.6000000e+01   2.7083674e-08   7.6000000e+01   5.3102784e-06
   7.7000000e+01   3.1130261e-08   7.7000000e+01   2.8466150e-08   7.7000000e+01   2.7062843e-08   7.7000000e+01   5.3103397e-06
   7.8000000e+01   3.1097956e-08   7.8000000e+01   2.8549193e-08   7.8000000e+01   2.7133849e-08   7.8000000e+01   5.3103468e-06
   7.9000000e+01   3.1022516e-08   7.9000000e+01   2.8551792e-08   7.9000000e+01   2.7151824e-08   7.9000000e+01   5.3103716e-06
   8.0000000e+01   3.1116326e-08   8.0000000e+01   2.8489627e-08   8.0000000e+01   2.7100524e-08   8.0000000e+01   5.3103313e-06
   8.1000000e+01   3.1078374e-08   8.1000000e+01   2.8483248e-08   8.1000000e+01   2.7118869e-08   8.1000000e+01   5.3103864e-06
   8.2000000e+01   3.1001113e-08   8.2000000e+01   2.8492209e-08   8.2000000e+01   2.7177926e-08   8.2000000e+01   5.3103637e-06
   8.3000000e+01   3.0994622e-08   8.3000000e+01   2.8518366e-08   8.3000000e+01   2.7093622e-08   8.3000000e+01   5.3104242e-06
   8.4000000e+01   3.1182887e-08   8.4000000e+01   2.8430881e-08   8.4000000e+01   2.7120272e-08   8.4000000e+01   5.3102362e-06
   8.5000000e+01   3.1020845e-08   8.5000000e+01   2.8558720e-08   8.5000000e+01   2.7181366e-08   8.5000000e+01   5.3103901e-06
   8.6000000e+01   3.1063953e-08   8.6000000e+01   2.8506705e-08   8.6000000e+01   2.7103097e-08   8.6000000e+01   5.3103050e-06
   8.7000000e+01   3.1027808e-08   8.7000000e+01   2.8512432e-08   8.7000000e+01   2.7125694e-08   8.7000000e+01   5.3103209e-06
   8.8000000e+01   3.1077347e-08   8.8000000e+01   2.8526959e-08   8.8000000e+01   2.7126758e-08   8.8000000e+01   5.3103199e-06
   8.9000000e+01   3.1147815e-08   8.9000000e+01   2.8523003e-08   8.9000000e+01   2.7147099e-08   8.9000000e+01   5.3103611e-06
   9.0000000e+01   3.1092620e-08   9.0000000e+01   2.8445285e-08   9.0000000e+01   2.7069131e-08   9.0000000e+01   5.3102831e-06
   9.1000000e+01   3.1057526e-08   9.1000000e+01   2.8541814e-08   9.1000000e+01   2.7168314e-08   9.1000000e+01   5.3104219e-06
   9.2000000e+01   3.1073069e-08   9.2000000e+01   2.8553236e-08   9.2000000e+01   2.7092151e-08   9.2000000e+01   5.3102145e-06
   9.3000000e+01   3.0985397e-08   9.3000000e+01   2.8508756e-08   9.3000000e+01   2.7141519e-08   9.3000000e+01   5.3102972e-06
   9.4000000e+01   3.1140083e-08   9.4000000e+01   2.8436686e-08   9.4000000e+01   2.7111762e-08   9.4000000e+01   5.3102385e-06
   9.5000000e+01   3.1039100e-08   9.5000000e+01   2.8526633e-08   9.5000000e+01   2.7108678e-08   9.5000000e+01   5.3103405e-06
   9.6000000e+01   3.1073881e-08   9.6000000e+01   2.8540862e-08   9.6000000e+01   2.7130980e-08   9.6000000e+01   5.3103589e-06
   9.7000000e+01   3.1041321e-08   9.7000000e+01   2.8550593e-08   9.7000000e+01   2.7118272e-08   9.7000000e+01   5.3103787e-06
   9.8000000e+01   3.1053926e-08   9.8000000e+01   2.8502598e-08   9.8000000e+01   2.7176679e-08   9.8000000e+01   5.3104043e-06
   9.9000000e+01   3.1082740e-08   9.9000000e+01   2.8409536e-08   9.9000000e+01   2.7145333e-08   9.9000000e+01   5.3103391e-06
   1.0000000e+02   3.1153881e-08   1.0000000e+02   2.8536320e-08   1.0000000e+02   2.7125816e-08   1.0000000e+02   5.3103685e-06
   1.0100000e+02   3.1055842e-08   1.0100000e+02   2.8508888e-08   1.0100000e+02   2.7134215e-08   1.0100000e+02   5.3103544e-06
   1.0200000e+02   3.1108778e-08   1.0200000e+02   2.8544486e-08   1.0200000e+02   2.7097105e-08   1.0200000e+02   5.3103563e-06
   1.0300000e+02   3.1009336e-08   1.0300000e+02   2.8529623e-08   1.0300000e+02   2.7091804e-08   1.0300000e+02   5.3103258e-06
   1.0400000e+02   3.1101697e-08   1.0400000e+02   2.8540033e-08   1.0400000e+02   2.7099166e-08   1.0400000e+02   5.3103378e-06
   1.0500000e+02   3.1093302e-08   1.0500000e+02   2.8536576e-08   1.0500000e+02   2.7136224e-08   1.0500000e+02   5.3104090e-06
   1.0600000e+02   3.1098054e-08   1.0600000e+02   2.8437833e-08   1.0600000e+02   2.7074382e-08   1.0600000e+02   5.3102483e-06
   1.0700000e+02   3.1019480e-08   1.0700000e+02   2.8475940e-08   1.0700000e+02   2.7114424e-08   1.0700000e+02   5.3102773e-06
   1.0800000e+02   3.1025664e-08   1.0800000e+02   2.8526374e-08   1.0800000e+02   2.7107808e-08   1.0800000e+02   5.3102534e-06
   1.0900000e+02   3.1148051e-08   1.0900000e+02   2.8440555e-08   1.0900000e+02   2.7141585e-08   1.0900000e+02   5.3103502e-06
   1.1000000e+02   3.1101198e-08   1.1000000e+02   2.8486877e-08   1.1000000e+02   2.7133288e-08   1.1000000e+02   5.3103651e-06
   1.1100000e+02   3.1122463e-08   1.1100000e+02   2.8497077e-08   1.1100000e+02   2.7087740e-08   1.1100000e+02   5.3103580e-06
   1.1200000e+02   3.1039649e-08   1.1200000e+02   2.8468861e-08   1.1200000e+02   2.7127207e-08   1.1200000e+02   5.3103497e-06
   1.1300000e+02   3.1080333e-08   1.1300000e+02   2.8541610e-08   1.1300000e+02   2.7195188e-08   1.1300000e+02   5.3103568e-06
   1.1400000e+02   3.1006874e-08   1.1400000e+02   2.8496316e-08   1.1400000e+02   2.7218775e-08   1.1400000e+02   5.3104497e-06
   1.1500000e+02   3.1104570e-08   1.1500000e+02   2.8545859e-08   1.1500000e+02   2.7122967e-08   1.1500000e+02   5.3103319e-06
   1.1600000e+02   3.1067042e-08   1.1600000e+02   2.8548245e-08   1.1600000e+02   2.7121892e-08   1.1600000e+02   5.3103109e-06
   1.1700000e+02   3.1063175e-08   1.1700000e+02   2.8472540e-08   1.1700000e+02   2.7150822e-08   1.1700000e+02   5.3103988e-06
   1.1800000e+02   3.0969739e-08   1.1800000e+02   2.8519189e-08   1.1800000e+02   2.7160285e-08   1.1800000e+02   5.3103692e-06
   1.1900000e+02   3.1110359e-08   1.1900000e+02   2.8506859e-08   1.1900000e+02   2.7133218e-08   1.1900000e+02   5.3103847e-06
   1.2000000e+02   3.1040857e-08   1.2000000e+02   2.8510174e-08   1.2000000e+02   2.7137297e-08   1.2000000e+02   5.3102829e-06
   1.2100000e+02   3.1134535e-08   1.2100000e+02   2.8523042e-08   1.2100000e+02   2.7114595e-08   1.2100000e+02   5.3103912e-06
   1.2200000e+02   3.1081495e-08   1.2200000e+02   2.8502235e-08   1.2200000e+02   2.7141127e-08   1.2200000e+02   5.3103347e-06
   1.2300000e+02   3.1039233e-08   1.2300000e+02   2.8597441e-08   1.2300000e+02   2.7187509e-08   1.2300000e+02   5.3104519e-06
   1.2400000e+02   3.1047035e-08   1.2400000e+02   2.8595931e-08   1.2400000e+02   2.7146811e-08   1.2400000e+02   5.3103621e-06
   1.2500000e+02   3.1067874e-08   1.2500000e+02   2.8590474e-08   1.2500000e+02   2.7133222e-08   1.2500000e+02   5.3103585e-06
   1.2600000e+02   3.1067096e-08   1.2600000e+02   2.8504923e-08   1.2600000e+02   2.7128660e-08   1.2600000e+02   5.3103453e-06
   1.2700000e+02   3.1022015e-08   1.2700000e+02   2.8554966e-08   1.2700000e+02   2.7108323e-08   1.2700000e+02   5.3103580e-06
   1.2800000e+02   3.1010982e-08   1.2800000e+02   2.8539388e-08   1.2800000e+02   2.7142255e-08   1.2800000e+02   5.3103388e-06
   1.2900000e+02   3.1042868e-08   1.2900000e+02   2.8597505e-08   1.2900000e+02   2.7123631e-08   1.2900000e+02   5.3103112e-06
   1.3000000e+02   3.1070620e-08   1.3000000e+02   2.8485612e-08   1.3000000e+02   2.7119659e-08   1.3000000e+02   5.3103116e-06
   1.3100000e+02   3.1035192e-08   1.3100000e+02   2.8514213e-08   1.3100000e+02   2.7178094e-08   1.3100000e+02   5.3104094e-06
   1.3200000e+02   3.1107611e-08   1.3200000e+02   2.8500928e-08   1.3200000e+02   2.7115542e-08   1.3200000e+02   5.3103582e-06
   1.3300000e+02   3.1053567e-08   1.3300000e+02   2.8545465e-08   1.3300000e+02   2.7133733e-08   1.3300000e+02   5.3103622e-06
   1.3400000e+02   3.0988357e-08   1.3400000e+02   2.8524562e-08   1.3400000e+02   2.7063290e-08   1.3400000e+02   5.3102532e-06
   1.3500000e+02   3.1052029e-08   1.3500000e+02   2.8515727e-08   1.3500000e+02   2.7162281e-08   1.3500000e+02   5.3103219e-06
   1.3600000e+02   3.1129311e-08   1.3600000e+02   2.8479835e-08   1.3600000e+02   2.7098347e-08   1.3600000e+02   5.3103251e-06
   1.3700000e+02   3.1075436e-08   1.3700000e+02   2.8500606e-08   1.3700000e+02   2.7141066e-08   1.3700000e+02   5.3103420e-06
   1.3800000e+02   3.1017798e-08   1.3800000e+02   2.8575228e-08   1.3800000e+02   2.7156089e-08   1.3800000e+02   5.3102904e-06
   1.3900000e+02   3.1069822e-08   1.3900000e+02   2.8483356e-08   1.3900000e+02   2.7110124e-08   1.3900000e+02   5.3103142e-06
   1.4000000e+02   3.1089527e-08   1.4000000e+02   2.8485738e-08   1.4000000e+02   2.7087761e-08   1.4000000e+02   5.3103028e-06
   1.4100000e+02   3.1008870e-08   1.4100000e+02   2.8510748e-08   1.4100000e+02   2.7168440e-08   1.4100000e+02   5.3103478e-06
   1.4200000e+02   3.1057464e-08   1.4200000e+02   2.8452781e-08   1.4200000e+02   2.7169905e-08   1.4200000e+02   5.3103365e-06
   1.4300000e+02   3.1078391e-08   1.4300000e+02   2.8553744e-08   1.4300000e+02   2.7101640e-08   1.4300000e+02   5.3103418e-06
   1.4400000e+02   3.1016672e-08   1.4400000e+02   2.8532945e-08   1.4400000e+02   2.7139997e-08   1.4400000e+02   5.3103409e-06
   1.4500000e+02   3.1026701e-08   1.4500000e+02   2.8523377e-08   1.4500000e+02   2.7183683e-08   1.4500000e+02   5.3104289e-06
   1.4600000e+02   3.1053913e-08   1.4600000e+02   2.8469065e-08   1.4600000e+02   2.7124470e-08   1.4600000e+02   5.3103020e-06
   1.4700000e+02   3.1041646e-08   1.4700000e+02   2.8532769e-08   1.4700000e+02   2.7086013e-08   1.4700000e+02   5.3103002e-06
   1.4800000e+02   3.1105582e-08   1.4800000e+02   2.8521670e-08   1.4800000e+02   2.7162377e-08   1.4800000e+02   5.3104343e-06
   1.4900000e+02   3.1142060e-08   1.4900000e+02   2.8494000e-08   1.4900000e+02   2.7110902e-08   1.4900000e+02   5.3103103e-06
   1.5000000e+02   3.1096704e-08   1.5000000e+02   2.8490469e-08   1.5000000e+02   2.7106873e-08   1.5000000e+02   5.3103400e-06
   1.5100000e+02   3.0998050e-08   1.5100000e+02   2.8588735e-08   1.5100000e+02   2.7157888e-08   1.5100000e+02   5.3103247e-06
   1.5200000e+02   3.1082074e-08   1.5200000e+02   2.8564845e-08   1.5200000e+02   2.7061773e-08   1.5200000e+02   5.3103073e-06
   1.5300000e+02   3.1061337e-08   1.5300000e+02   2.8480192e-08   1.5300000e+02   2.7205262e-08   1.5300000e+02   5.3104328e-06
   1.5400000e+02   3.1169892e-08   1.5400000e+02   2.8533353e-08   1.5400000e+02   2.7121498e-08   1.5400000e+02   5.3103710e-06
   1.5500000e+02   3.1019667e-08   1.5500000e+02   2.8486067e-08   1.5500000e+02   2.7083626e-08   1.5500000e+02   5.3102882e-06
   1.5600000e+02   3.1050822e-08   1.5600000e+02   2.8466797e-08   1.5600000e+02   2.7127363e-08   1.5600000e+02   5.3102986e-06
   1.5700000e+02   3.1121800e-08   1.5700000e+02   2.8536821e-08   1.5700000e+02   2.7119189e-08   1.5700000e+02   5.3102993e-06
   1.5800000e+02   3.1067415e-08   1.5800000e+02   2.8394556e-08   1.5800000e+02   2.7127536e-08   1.5800000e+02   5.3103781e-06
   1.5900000e+02   3.1065570e-08   1.5900000e+02   2.8509991e-08   1.5900000e+02   2.7110246e-08   1.5900000e+02   5.3103087e-06
   1.6000000e+02   3.1035563e-08   1.6000000e+02   2.8522564e-08   1.6000000e+02   2.7123066e-08   1.6000000e+02   5.3103239e-06
   1.6100000e+02   3.1088572e-08   1.6100000e+02   2.8382425e-08   1.6100000e+02   2.7089818e-08   1.6100000e+02   5.3102514e-06
   1.6200000e+02   3.1017871e-08   1.6200000e+02   2.8527813e-08   1.6200000e+02   2.7138032e-08   1.6200000e+02   5.3103204e-06
   1.6300000e+02   3.1030304e-08   1.6300000e+02   2.8529907e-08   1.6300000e+02   2.7141439e-08   1.6300000e+02   5.3103136e-06
   1.6400000e+02   3.1005159e-08   1.6400000e+02   2.8504809e-08   1.6400000e+02   2.7125573e-08   1.6400000e+02   5.3103742e-06
   1.6500000e+02   3.1059493e-08   1.6500000e+02   2.8580171e-08   1.6500000e+02   2.7118629e-08   1.6500000e+02   5.3102925e-06
   1.6600000e+02   3.1046902e-08   1.6600000e+02   2.8485434e-08   1.6600000e+02   2.7097197e-08   1.6600000e+02   5.3103686e-06
   1.6700000e+02   3.1116024e-08   1.6700000e+02   2.8551149e-08   1.6700000e+02   2.7151172e-08   1.6700000e+02   5.3103233e-06
   1.6800000e+02   3.1094327e-08   1.6800000e+02   2.8565998e-08   1.6800000e+02   2.7110026e-08   1.6800000e+02   5.3102927e-06
   1.6900000e+02   3.1053368e-08   1.6900000e+02   2.8501843e-08   1.6900000e+02   2.7112744e-08   1.6900000e+02   5.3102848e-06
   1.7000000e+02   3.1086623e-08   1.7000000e+02   2.8468042e-08   1.7000000e+02   2.7115401e-08   1.7000000e+02   5.3103143e-06
   1.7100000e+02   3.1034876e-08   1.7100000e+02   2.8607587e-08   1.7100000e+02   2.7084699e-08   1.7100000e+02   5.3102497e-06
   1.7200000e+02   3.1061971e-08   1.7200000e+02   2.8455448e-08   1.7200000e+02   2.7195279e-08   1.7200000e+02   5.3103639e-06
   1.7300000e+02   3.1105612e-08   1.7300000e+02   2.8557894e-08   1.7300000e+02   2.7073504e-08   1.7300000e+02   5.3103454e-06
   1.7400000e+02   3.1126914e-08   1.7400000e+02   2.8480770e-08   1.7400000e+02   2.7085671e-08   1.7400000e+02   5.3103018e-06
   1.7500000e+02   3.0996436e-08   1.7500000e+02   2.8627401e-08   1.7500000e+02   2.7102535e-08   1.7500000e+02   5.3103336e-06
   1.7600000e+02   3.1032073e-08   1.7600000e+02   2.8519247e-08   1.7600000e+02   2.7219198e-08   1.7600000e+02   5.3103895e-06
   1.7700000e+02   3.1007751e-08   1.7700000e+02   2.8475299e-08   1.7700000e+02   2.7178459e-08   1.7700000e+02   5.3104242e-06
   1.7800000e+02   3.1023658e-08   1.7800000e+02   2.8573931e-08   1.7800000e+02   2.7179020e-08   1.7800000e+02   5.3104101e-06
   1.7900000e+02   3.1081417e-08   1.7900000e+02   2.8509687e-08   1.7900000e+02   2.7168820e-08   1.7900000e+02   5.3103953e-06
   1.8000000e+02   3.1034459e-08   1.8000000e+02   2.8531723e-08   1.8000000e+02   2.7087173e-08   1.8000000e+02   5.3103086e-06
   1.8100000e+02   3.1071549e-08   1.8100000e+02   2.8589788e-08   1.8100000e+02   2.7169964e-08   1.8100000e+02   5.3103592e-06
   1.8200000e+02   3.1071252e-08   1.8200000e+02   2.8538242e-08   1.8200000e+02   2.7166715e-08   1.8200000e+02   5.3103156e-06
   1.8300000e+02   3.1068430e-08   1.8300000e+02   2.8526660e-08   1.8300000e+02   2.7106630e-08   1.8300000e+02   5.3104361e-06
   1.8400000e+02   3.1085383e-08   1.8400000e+02   2.8489300e-08   1.8400000e+02   2.7154918e-08   1.8400000e+02   5.3103950e-06
   1.8500000e+02   3.1075052e-08   1.8500000e+02   2.8624495e-08   1.8500000e+02   2.7135320e-08   1.8500000e+02   5.3103673e-06
   1.8600000e+02   3.1091281e-08   1.8600000e+02   2.8601747e-08   1.8600000e+02   2.7144335e-08   1.8600000e+02   5.3103370e-06
   1.8700000e+02   3.1091668e-08   1.8700000e+02   2.8496769e-08   1.8700000e+02   2.7141292e-08   1.8700000e+02   5.3103113e-06
   1.8800000e+02   3.1073117e-08   1.8800000e+02   2.8498107e-08   1.8800000e+02   2.7107166e-08   1.8800000e+02   5.3103109e-06
   1.8900000e+02   3.0995423e-08   1.8900000e+02   2.8572346e-08   1.8900000e+02   2.7162455e-08   1.8900000e+02   5.3103499e-06
   1.9000000e+02   3.1069572e-08   1.9000000e+02   2.8500715e-08   1.9000000e+02   2.7157609e-08   1.9000000e+02   5.3103852e-06
   1.9100000e+02   3.1081031e-08   1.9100000e+02   2.8452588e-08   1.9100000e+02   2.7115737e-08   1.9100000e+02   5.3103277e-06
   1.9200000e+02   3.1037734e-08   1.9200000e+02   2.8521834e-08   1.9200000e+02   2.7110804e-08   1.9200000e+02   5.3103574e-06
   1.9300000e+02   3.1070089e-08   1.9300000e+02   2.8507658e-08   1.9300000e+02   2.7148728e-08   1.9300000e+02   5.3103428e-06
   1.9400000e+02   3.1023768e-08   1.9400000e+02   2.8552051e-08   1.9400000e+02   2.7152488e-08   1.9400000e+02   5.3103485e-06
   1.9500000e+02   3.1136006e-08   1.9500000e+02   2.8496350e-08   1.9500000e+02   2.7129381e-08   1.9500000e+02   5.3103429e-06
   1.9600000e+02   3.1069654e-08   1.9600000e+02   2.8552167e-08   1.9600000e+02   2.7113588e-08   1.9600000e+02   5.3103104e-06
   1.9700000e+02   3.1061203e-08   1.9700000e+02   2.8506831e-08   1.9700000e+02   2.7137931e-08   1.9700000e+02   5.3103532e-06
   1.9800000e+02   3.1030211e-08   1.9800000e+02   2.8578938e-08   1.9800000e+02   2.7111213e-08   1.9800000e+02   5.3102943e-06
   1.9900000e+02   3.1034888e-08   1.9900000e+02   2.8575460e-08   1.9900000e+02   2.7118952e-08   1.9900000e+02   5.3102404e-06
   2.0000000e+02   3.1058720e-08   2.0000000e+02   2.8488365e-08   2.0000000e+02   2.7151396e-08   2.0000000e+02   5.3103343e-06
